Values for the energy of the high-energetic photons in GeV, Corresponding values for the flux (nu*F_nu) in GeV/(s*cm^2)
0.05791703356722599 7.621936058183562e-07
0.060063992415515625 7.622098659992604e-07
0.06229053807984789 7.622482681935887e-07
0.0645996208083343 7.623088073169438e-07
0.0669943002134807 7.62391486344178e-07
0.06947774932627672 7.624963390580677e-07
0.07205325880056909 7.626232080770161e-07
0.07472424127328889 7.627720034318154e-07
0.07749423588631067 7.629426005298135e-07
0.08036691297593475 7.631349447231093e-07
0.0833460789362066 7.633488362693076e-07
0.08643568126251763 7.635842047782142e-07
0.08963981378216929 7.638409205465518e-07
0.09296272207883263 7.641189348526871e-07
0.09640880911808981 7.644180330763915e-07
0.09998264108151203 7.647381088297619e-07
0.10368895341700404 7.650789886527012e-07
0.1075326571134327 7.654405506371472e-07
0.11151884520785235 7.658225463360617e-07
0.11565279953395113 7.662248571875885e-07
0.11993999772065855 7.666472211850026e-07
0.12438612045018878 7.670895482777611e-07
0.12899705898513586 7.675516404883637e-07
0.1337789229745961 7.680333892868464e-07
0.13873804854965832 7.685344093669782e-07
0.1438810067189918 7.690544740680617e-07
0.1492146120756543 7.695933193410568e-07
0.1547459318266579 7.701508494337135e-07
0.1604822951572561 7.707266494783763e-07
0.16643130294236252 7.713206189643144e-07
0.17260083781796573 7.719325728190801e-07
0.17899907462588785 7.725622135902838e-07
0.18563449124572617 7.732089147658055e-07
0.19251587982832943 7.738726543755625e-07
0.19965235844569387 7.745533784039616e-07
0.20705338317271715 7.752507797899987e-07
0.2147287606168155 7.759642773653917e-07
0.22268866091200978 7.766938717356622e-07
0.23094363119469638 7.774393358962664e-07
0.239504609578958 7.782002165715625e-07
0.24838293964993546 7.789761551290975e-07
0.2575903854944577 7.797673501805752e-07
0.26713914728885685 7.805735578434752e-07
0.27704187746461145 7.813943973420201e-07
0.2873116974732455 7.82229352283917e-07
0.29796221517269406 7.830785175608364e-07
0.3090075428581745 7.839415055209708e-07
0.3204623159614541 7.848175754798966e-07
0.33234171244328925 7.857062922426545e-07
0.344661472904737 7.866076737963232e-07
0.35743792144398157 7.875212794223723e-07
0.3706879872863156 7.884460804667287e-07
0.38442922721593437 7.893818777957051e-07
0.3986798488392667 7.903286271046795e-07
0.4134587347106696 7.912861210222793e-07
0.42878546735244677 7.922532694668875e-07
0.4446803552023535 7.932300607018267e-07
0.461164459522961 7.942164292092459e-07
0.47825962230853886 7.946571805709401e-07
0.49598849522643673 7.944980535774517e-07
0.5143745696313048 7.940269532037596e-07
0.5334422076919327 7.933475243984251e-07
0.5532166746719448 7.925253102007191e-07
0.573724172407126 7.916106727395646e-07
0.5949918740237393 7.906430877721674e-07
0.6170479599438327 7.896530745781876e-07
0.6399216552252522 7.886657636881675e-07
0.6636432682858263 7.877040951020849e-07
0.6882442310630424 7.867856963183421e-07
0.7137571406624261 7.859230987441735e-07
0.7402158025498026 7.851281239034159e-07
0.7676552753446846 7.844111369310708e-07
0.7961119172741165 7.837787065807665e-07
0.8256234343485632 7.832347177811241e-07
0.8562289303236369 7.827590988668517e-07
0.8879689585138945 7.816022069743949e-07
0.920885575527353 7.800371857754215e-07
0.9550223969919022 7.78264787196972e-07
0.9904246553474961 7.764114027442394e-07
1.0271392597806521 7.74511820328759e-07
1.0652148583807097 7.726262703726443e-07
1.104701902600188 7.707582805240474e-07
1.1456527141046629 7.690023486316944e-07
1.1881215541007426 7.673412997117221e-07
1.2321646952339866 7.657601856946488e-07
1.2778404961520726 7.642897810240537e-07
1.3252094788319622 7.630205993713686e-07
1.3743344087735663 7.618293314769876e-07
1.4252803781661545 7.60806664966396e-07
1.4781148921376879 7.599427886261099e-07
1.5329079582014076 7.59192984563849e-07
1.5897321790181396 7.585858867138259e-07
1.6486628485972727 7.581845065226226e-07
1.7097780520638624 7.578570199590479e-07
1.7731587691240516 7.576857366749514e-07
1.838888981365923 7.576708174974187e-07
1.9070557835379165 7.577767925192468e-07
1.9777494989523323 7.579703907330903e-07
2.05106379916675 7.562975746224111e-07
2.127095828102008 7.532477377865911e-07
2.2059463307611744 7.494657364802271e-07
2.2877197867200736 7.451829438841945e-07
2.372524548566259 7.406271525792603e-07
2.4604729854698197 7.359351346013945e-07
2.551681632076356 7.313246268709158e-07
2.6462713429192917 7.267838825840077e-07
2.7443674525562107 7.223197190345319e-07
2.8460999416413904 7.173394816469161e-07
2.9516036091545215 7.102782748791563e-07
3.0610182510139397 7.023505263121844e-07
3.1744888453109055 6.941800122654692e-07
3.2921657444104784 6.858114188197783e-07
3.4142048741734685 6.776405886696236e-07
3.540767940563459 6.696337384078122e-07
3.672022643912682 6.617979305309927e-07
3.808142901130573 6.545684021781373e-07
3.949309076149596 6.476733522022547e-07
4.095708218913497 6.410998224045938e-07
4.2475343132248025 6.348579714742387e-07
4.40498853377992 6.295169797455476e-07
4.568279512732347 6.243101635833432e-07
4.737623616137378 6.196806785889224e-07
4.913245230644375 6.152607057085703e-07
5.095377060816665 6.106908527380082e-07
5.284260437472939 6.06231835354594e-07
5.480145637458717 6.021050317433781e-07
5.683292215271641 5.98046129833139e-07
5.893969346979876 5.944221132987827e-07
6.112456186889568 5.91335766314695e-07
6.339042237433619 5.885017099616524e-07
6.5740277327722625 5.840845237756857e-07
6.817724036613423 5.77138675344865e-07
7.070454054780076 5.692707773865478e-07
7.332552663071454 5.606287842814559e-07
7.604367150984729 5.523721160401116e-07
7.8862576818852785 5.438379688711417e-07
8.17859777023532 5.352982523379508e-07
8.48177477651322 5.274978149690488e-07
8.796190420479146 5.198637015803054e-07
9.122261313467257 5.127245513433868e-07
9.460419510409874 5.057727779748065e-07
9.811113082324798 4.994528667215565e-07
10.17480671002447 4.935390884676043e-07
10.551982299833766 4.881390003660731e-07
10.943139622132174 4.834095110574098e-07
11.34879697356637 4.7834877436742e-07
11.769491863810684 4.744733491656986e-07
12.205781727785684 4.706334916066218e-07
12.658244664278193 4.641167816662565e-07
13.12748020194162 4.5364487378400525e-07
13.61411009369167 4.4180106584686e-07
14.118779140550132 4.2942060141339623e-07
14.642156046027647 4.1722748613165684e-07
15.184934302178613 4.0534566781136764e-07
15.747833108501572 3.9377079527025993e-07
16.331598324902767 3.8295546974504686e-07
16.937003459985565 3.728268183035367e-07
17.56485069597564 3.631352521284784e-07
18.215971951639403 3.543984348145733e-07
18.89122998460434 3.4638758342259134e-07
19.591519534542048 3.389831972612562e-07
20.31776850872855 3.3084986118868607e-07
21.070939211552684 3.2232806662429364e-07
21.85202961960173 3.1408170658620663e-07
22.662074704014316 3.06169152492283e-07
23.50214780185195 2.9869807746878774e-07
24.373362038306762 2.9176100211240794e-07
25.27687180162999 2.852729684497361e-07
26.21387427273549 2.774588022733485e-07
27.185611011504708 2.674008656214041e-07
28.193369601895238 2.566931401112762e-07
29.23848535803334 2.4616157631564643e-07
30.32234309355005 2.361257262808272e-07
31.44637895650579 2.2665603055906971e-07
32.61208233233508 2.179241822564462e-07
33.820997817332916 2.0881166955975407e-07
35.07472726529621 1.9995669771711393e-07
36.37493191003452 1.914389259594947e-07
37.72333456656097 1.8377795953150193e-07
39.12172191388018 1.7662824352828846e-07
40.57194686239791 1.7010745815478645e-07
42.075931009090304 1.642442105116687e-07
43.635667183684596 1.5893967030332153e-07
45.25322208922536 1.541399773704862e-07
46.93073904052611 1.498483057153235e-07
48.67044080413376 1.4598726108727853e-07
50.47463254356922 1.4257985264254306e-07
52.345704873746435 1.3948659104072416e-07
54.286137028618406 1.367684732321898e-07
56.29850014624556 1.3435902392652463e-07
58.38546067564014 1.3219871083687113e-07
60.54978390990127 1.3024218713362733e-07
62.7943376503219 1.2830953577840115e-07
65.12209600632202 1.2649488586785387e-07
67.53614333624353 1.248569253335033e-07
70.0396783342299 1.2337921364543838e-07
72.63601826860341 1.221130576756097e-07
75.32860337735727 1.2090931378076264e-07
78.12100142658733 1.199781698904766e-07
81.01691243790273 1.1914740137812954e-07
84.02017359107923 1.1848428377806668e-07
87.13476430845103 1.1796406902518056e-07
90.36481152778096 1.1746666189851786e-07
93.71459517059148 1.1728348660068044e-07
97.18855381320476 1.170938687934263e-07
100.79129056800622 1.1707379889087057e-07
104.52757918272515 1.1703528363492356e-07
108.40237036580893 1.1704262245984254e-07
112.42079834628025 1.1707574781218227e-07
116.58818767676397 1.1694463481809752e-07
120.91006028869852 1.1686952802083311e-07
125.39214280908064 1.1671617947480049e-07
130.04037414844066 1.163330840482061e-07
134.86091337009873 1.1576754126807903e-07
139.86014785113073 1.1502805770453735e-07
145.04470174585904 1.1412134357761639e-07
150.4214447630811 1.130166729280885e-07
155.99750126866437 1.1201474124909595e-07
161.78025972557109 1.1093573705302044e-07
167.77738248382215 1.0989899498367247e-07
173.9968159333689 1.0904019446262362e-07
180.44680103332698 1.0838487475686166e-07
187.13588423152584 1.0797259295373002e-07
194.0729287888411 1.0776629394695424e-07
201.26712652331355 1.0782392285769709e-07
208.72800998961677 1.0807086543665319e-07
216.46546511001628 1.0845167159267039e-07
224.48974427354864 1.0895567250428361e-07
232.81147992078186 1.0950098232144574e-07
241.44169863215822 1.1004803489545339e-07
250.39183573858867 1.1059117761836202e-07
259.67375047364635 1.1112767226647976e-07
269.29974168745423 1.1166150230366796e-07
279.28256414307737 1.1211211302130519e-07
289.63544541701265 1.1267524853001266e-07
300.3721034261727 1.1315988973255544e-07
311.5067646045916 1.1358360177039545e-07
323.0541827539282 1.1399713966965632e-07
335.02965859275 1.143380905178792e-07
347.4490600305021 1.1461599542907443e-07
360.3288431930242 1.1480087397708506e-07
373.6860742274712 1.1492301838821762e-07
387.5384519155312 1.1487760962317955e-07
401.9043311249133 1.1475710649845026e-07
416.8027471301637 1.1447420088811793e-07
432.25344083504547 1.1421537516039293e-07
448.2768849299027 1.1353555466667368e-07
464.8943110186685 1.1308677991176676e-07
482.1277377514541 1.1412982625298546e-07
500.0000000000004 1.1562335182480899e-07
